"time","current","voltage"
 0.00000000000000000e+00, 2.89378767223888932e-04,-8.00000000000000000e+01
 2.50000000000000000e+01, 2.89368764387001312e-04,-8.00000000000000000e+01
 5.00000000000000000e+01, 2.89358771674719326e-04,-8.00000000000000000e+01
 7.50000000000000000e+01, 2.89348778962437287e-04,-8.00000000000000000e+01
 1.00000000000000000e+02, 2.89338786250155247e-04,-8.00000000000000000e+01
 1.25000000000000000e+02, 2.89328793537873261e-04,-8.00000000000000000e+01
 1.50000000000000000e+02, 2.89318800825591276e-04,-8.00000000000000000e+01
 1.75000000000000000e+02, 2.89308808113309236e-04,-8.00000000000000000e+01
 2.00000000000000000e+02, 2.89298815401027197e-04,-8.00000000000000000e+01
 2.25000000000000000e+02, 2.89288822688745211e-04,-8.00000000000000000e+01
 2.50000000000000000e+02, 2.89278829976463226e-04,-8.00000000000000000e+01
 2.75000000000000000e+02, 2.89268837264181240e-04,-8.00000000000000000e+01
 3.00000000000000000e+02, 2.89258844551899201e-04,-8.00000000000000000e+01
 3.25000000000000000e+02, 2.89248851839617215e-04,-8.00000000000000000e+01
 3.50000000000000000e+02, 2.89238859127335175e-04,-8.00000000000000000e+01
 3.75000000000000000e+02, 2.89229225796341157e-04,-8.00000000000000000e+01
 4.00000000000000000e+02, 2.89220814067966655e-04,-8.00000000000000000e+01
 4.25000000000000000e+02, 2.89212510002484317e-04,-8.00000000000000000e+01
 4.50000000000000000e+02, 2.89204313599894145e-04,-8.00000000000000000e+01
 4.75000000000000000e+02, 2.89196224860196029e-04,-8.00000000000000000e+01
 5.00000000000000000e+02, 2.89188243783390132e-04,-8.00000000000000000e+01
 5.25000000000000000e+02, 2.89180370369476292e-04,-8.00000000000000000e+01
 5.50000000000000000e+02, 2.89172604618454562e-04,-8.00000000000000000e+01
 5.75000000000000000e+02, 2.89164946530324997e-04,-8.00000000000000000e+01
 6.00000000000000000e+02, 2.89157396105087542e-04,-8.00000000000000000e+01
 6.25000000000000000e+02, 2.89149953342742144e-04,-8.00000000000000000e+01
 6.50000000000000000e+02, 2.89142618243288965e-04,-8.00000000000000000e+01
 6.75000000000000000e+02, 2.89135390806727842e-04,-8.00000000000000000e+01
 7.00000000000000000e+02, 2.89128271033058885e-04,-8.00000000000000000e+01
 7.25000000000000000e+02, 2.89121258922282038e-04,-8.00000000000000000e+01
 7.50000000000000000e+02, 2.89114354474397355e-04,-8.00000000000000000e+01
 7.75000000000000000e+02, 2.89107557689404729e-04,-8.00000000000000000e+01
 8.00000000000000000e+02, 2.89100868567304268e-04,-8.00000000000000000e+01
 8.25000000000000000e+02, 2.89094287108095918e-04,-8.00000000000000000e+01
 8.50000000000000000e+02, 2.89087813311779678e-04,-8.00000000000000000e+01
 8.75000000000000000e+02, 2.89081447178355603e-04,-8.00000000000000000e+01
 9.00000000000000000e+02, 2.89075188707823584e-04,-8.00000000000000000e+01
 9.25000000000000000e+02, 2.89069037900183731e-04,-8.00000000000000000e+01
 9.50000000000000000e+02, 2.89062994755435987e-04,-8.00000000000000000e+01
 9.75000000000000000e+02, 2.89057059273580409e-04,-8.00000000000000000e+01
 1.00000000000000000e+03, 2.89051231454616887e-04,-8.00000000000000000e+01
 1.02500000000000000e+03, 2.89045511298545530e-04,-8.00000000000000000e+01
 1.05000000000000000e+03, 2.89039898805366284e-04,-8.00000000000000000e+01
 1.07500000000000000e+03, 2.89034404900207734e-04,-8.00000000000000000e+01
 1.10000000000000000e+03, 2.89029041119908260e-04,-8.00000000000000000e+01
 1.12500000000000000e+03, 2.89023787259903441e-04,-8.00000000000000000e+01
 1.15000000000000000e+03, 2.89018643320193222e-04,-8.00000000000000000e+01
 1.17500000000000000e+03, 2.89013609300777549e-04,-8.00000000000000000e+01
 1.20000000000000000e+03, 2.89008685201656531e-04,-8.00000000000000000e+01
 1.22500000000000000e+03, 2.89003871022830167e-04,-8.00000000000000000e+01
 1.25000000000000000e+03, 2.88999166764298350e-04,-8.00000000000000000e+01
 1.27500000000000000e+03, 2.88994572426061241e-04,-8.00000000000000000e+01
 1.30000000000000000e+03, 2.88990088008118679e-04,-8.00000000000000000e+01
 1.32500000000000000e+03, 2.88985713510470771e-04,-8.00000000000000000e+01
 1.35000000000000000e+03, 2.88981448933117464e-04,-8.00000000000000000e+01
 1.37500000000000000e+03, 2.88977294276058811e-04,-8.00000000000000000e+01
 1.40000000000000000e+03, 2.88973249539294758e-04,-8.00000000000000000e+01
 1.42500000000000000e+03, 2.88969314722825360e-04,-8.00000000000000000e+01
 1.45000000000000000e+03, 2.88965489826650509e-04,-8.00000000000000000e+01
 1.47500000000000000e+03, 2.88961774850770312e-04,-8.00000000000000000e+01
 1.50000000000000000e+03, 2.88958169795184715e-04,-8.00000000000000000e+01
 1.52500000000000000e+03, 2.88954674659893773e-04,-8.00000000000000000e+01
 1.55000000000000000e+03, 2.88951289444897485e-04,-8.00000000000000000e+01
 1.57500000000000000e+03, 2.88948014150195744e-04,-8.00000000000000000e+01
 1.60000000000000000e+03, 2.88944848775788657e-04,-8.00000000000000000e+01
 1.62500000000000000e+03, 2.88941793321676116e-04,-8.00000000000000000e+01
 1.65000000000000000e+03, 2.88938847787858285e-04,-8.00000000000000000e+01
 1.67500000000000000e+03, 2.88936012174335053e-04,-8.00000000000000000e+01
 1.70000000000000000e+03, 2.88933286481106422e-04,-8.00000000000000000e+01
 1.72500000000000000e+03, 2.88930670708172446e-04,-8.00000000000000000e+01
 1.75000000000000000e+03, 2.88928164855533124e-04,-8.00000000000000000e+01
 1.77500000000000000e+03, 2.88924385589927691e-04,-8.00000000000000000e+01
 1.80000000000000000e+03, 2.88918978763182956e-04,-8.00000000000000000e+01
 1.82500000000000000e+03, 2.88913633779346295e-04,-8.00000000000000000e+01
 1.85000000000000000e+03, 2.88908350638417491e-04,-8.00000000000000000e+01
 1.87500000000000000e+03, 2.88903129340396813e-04,-8.00000000000000000e+01
 1.90000000000000000e+03, 2.88897969885284047e-04,-8.00000000000000000e+01
 1.92500000000000000e+03, 2.88892872273079299e-04,-8.00000000000000000e+01
 1.95000000000000000e+03, 2.88887836503782516e-04,-8.00000000000000000e+01
 1.97500000000000000e+03, 2.88882862577393752e-04,-8.00000000000000000e+01
 2.00000000000000000e+03,-8.74819551544499946e-04,-1.00000000000000000e+02
 2.02500000000000000e+03,-8.57650495630454595e-04,-1.00000000000000000e+02
 2.05000000000000000e+03,-8.40913432706141524e-04,-1.00000000000000000e+02
 2.07500000000000000e+03,-8.24679386771232700e-04,-1.00000000000000000e+02
 2.10000000000000000e+03,-8.08712334668367405e-04,-1.00000000000000000e+02
 2.12500000000000000e+03,-7.93030540855038830e-04,-1.00000000000000000e+02
 2.15000000000000000e+03,-7.77754827130860732e-04,-1.00000000000000000e+02
 2.17500000000000000e+03,-7.62817730396915094e-04,-1.00000000000000000e+02
 2.20000000000000000e+03,-7.48220021092203466e-04,-1.00000000000000000e+02
 2.22500000000000000e+03,-7.33973254240302166e-04,-1.00000000000000000e+02
 2.25000000000000000e+03,-7.20071286754860496e-04,-1.00000000000000000e+02
 2.27500000000000000e+03,-7.06514099380468473e-04,-1.00000000000000000e+02
 2.30000000000000000e+03,-6.93219394207221788e-04,-1.00000000000000000e+02
 2.32500000000000000e+03,-6.80246951729948342e-04,-1.00000000000000000e+02
 2.35000000000000000e+03,-6.67596771948648243e-04,-1.00000000000000000e+02
 2.37500000000000000e+03,-6.55268854863321382e-04,-1.00000000000000000e+02
 2.40000000000000000e+03,-6.43263200473967976e-04,-1.00000000000000000e+02
 2.42500000000000000e+03,-6.31579808780587918e-04,-1.00000000000000000e+02
 2.45000000000000000e+03,-6.20127724699492738e-04,-1.00000000000000000e+02
 2.47500000000000000e+03,-6.08926068704274560e-04,-1.00000000000000000e+02
 2.50000000000000000e+03,-5.98009227520031718e-04,-1.00000000000000000e+02
 2.52500000000000000e+03,-5.87377201146763997e-04,-1.00000000000000000e+02
 2.55000000000000000e+03,-5.77029989584471395e-04,-1.00000000000000000e+02
 2.57500000000000000e+03,-5.66967592833154022e-04,-1.00000000000000000e+02
 2.60000000000000000e+03,-5.57140217820502543e-04,-1.00000000000000000e+02
 2.62500000000000000e+03,-5.47492350574584671e-04,-1.00000000000000000e+02
 2.65000000000000000e+03,-5.38090914218881554e-04,-1.00000000000000000e+02
 2.67500000000000000e+03,-5.28935908753393083e-04,-1.00000000000000000e+02
 2.70000000000000000e+03,-5.20027334178119584e-04,-1.00000000000000000e+02
 2.72500000000000000e+03,-5.11365190493060840e-04,-1.00000000000000000e+02
 2.75000000000000000e+03,-5.02940391963185547e-04,-1.00000000000000000e+02
 2.77500000000000000e+03,-4.94640347290777483e-04,-1.00000000000000000e+02
 2.80000000000000000e+03,-4.86551717914553595e-04,-1.00000000000000000e+02
 2.82500000000000000e+03,-4.78674503834514099e-04,-1.00000000000000000e+02
 2.85000000000000000e+03,-4.71008705050658726e-04,-1.00000000000000000e+02
 2.87500000000000000e+03,-4.63554321562987637e-04,-1.00000000000000000e+02
 2.90000000000000000e+03,-4.56311353371500832e-04,-1.00000000000000000e+02
 2.92500000000000000e+03,-4.49195655129559811e-04,-1.00000000000000000e+02
 2.95000000000000000e+03,-4.42239711632714920e-04,-1.00000000000000000e+02
 2.97500000000000000e+03,-4.35464514132025084e-04,-1.00000000000000000e+02
 3.00000000000000000e+03,-4.28870062627490411e-04,-1.00000000000000000e+02
 3.02500000000000000e+03,-4.22456357119110795e-04,-1.00000000000000000e+02
 3.05000000000000000e+03,-4.16223397606886342e-04,-1.00000000000000000e+02
 3.07500000000000000e+03,-4.10129215719399283e-04,-1.00000000000000000e+02
 3.10000000000000000e+03,-4.04148763895192389e-04,-1.00000000000000000e+02
 3.12500000000000000e+03,-3.98322616673137196e-04,-1.00000000000000000e+02
 3.15000000000000000e+03,-3.92650774053233595e-04,-1.00000000000000000e+02
 3.17500000000000000e+03,-3.87133236035481641e-04,-1.00000000000000000e+02
 3.20000000000000000e+03,-3.81770002619881443e-04,-1.00000000000000000e+02
 3.22500000000000000e+03,-3.76549189663239923e-04,-1.00000000000000000e+02
 3.25000000000000000e+03,-3.71408141906916006e-04,-1.00000000000000000e+02
 3.27500000000000000e+03,-3.66398747442664115e-04,-1.00000000000000000e+02
 3.30000000000000000e+03,-3.61521006270484305e-04,-1.00000000000000000e+02
 3.32500000000000000e+03,-3.56774918390376412e-04,-1.00000000000000000e+02
 3.35000000000000000e+03,-3.52160483802340654e-04,-1.00000000000000000e+02
 3.37500000000000000e+03,-3.47677702506376867e-04,-1.00000000000000000e+02
 3.40000000000000000e+03,-3.43267255598761847e-04,-1.00000000000000000e+02
 3.42500000000000000e+03,-3.38960513898677051e-04,-1.00000000000000000e+02
 3.45000000000000000e+03,-3.34766071732308908e-04,-1.00000000000000000e+02
 3.47500000000000000e+03,-3.30683929099657417e-04,-1.00000000000000000e+02
 3.50000000000000000e+03,-3.26714086000722632e-04,-1.00000000000000000e+02
 3.52500000000000000e+03,-3.22856542435504608e-04,-1.00000000000000000e+02
 3.55000000000000000e+03,-3.19080181650262772e-04,-1.00000000000000000e+02
 3.57500000000000000e+03,-3.15377815223953487e-04,-1.00000000000000000e+02
 3.60000000000000000e+03,-3.11771229934645943e-04,-1.00000000000000000e+02
 3.62500000000000000e+03,-3.08260425782340192e-04,-1.00000000000000000e+02
 3.65000000000000000e+03,-3.04845402767035909e-04,-1.00000000000000000e+02
 3.67500000000000000e+03,-3.01526160888733257e-04,-1.00000000000000000e+02
 3.70000000000000000e+03,-2.98291477305755854e-04,-1.00000000000000000e+02
 3.72500000000000000e+03,-2.95108889728865000e-04,-1.00000000000000000e+02
 3.75000000000000000e+03,-2.92007991174440590e-04,-1.00000000000000000e+02
 3.77500000000000000e+03,-2.88988781642482624e-04,-1.00000000000000000e+02
 3.80000000000000000e+03,-2.86051261132991101e-04,-1.00000000000000000e+02
 3.82500000000000000e+03,-2.83195429645966023e-04,-1.00000000000000000e+02
 3.85000000000000000e+03,-2.80421287181407497e-04,-1.00000000000000000e+02
 3.87500000000000000e+03,-2.77688051319551095e-04,-1.00000000000000000e+02
 3.90000000000000000e+03,-2.75022114938581639e-04,-1.00000000000000000e+02
 3.92500000000000000e+03,-2.72425847595249651e-04,-1.00000000000000000e+02
 3.95000000000000000e+03,-2.69899249289555076e-04,-1.00000000000000000e+02
 3.97500000000000000e+03,-2.67442320021497859e-04,-1.00000000000000000e+02
 4.00000000000000000e+03,-2.65055059791078056e-04,-1.00000000000000000e+02
 4.02500000000000000e+03,-2.62715049426907779e-04,-1.00000000000000000e+02
 4.05000000000000000e+03,-2.60423212057683720e-04,-1.00000000000000000e+02
 4.07500000000000000e+03,-2.58190791969296180e-04,-1.00000000000000000e+02
 4.10000000000000000e+03,-2.56017789161744997e-04,-1.00000000000000000e+02
 4.12500000000000000e+03,-2.53904203635030279e-04,-1.00000000000000000e+02
 4.15000000000000000e+03,-2.51850035389152027e-04,-1.00000000000000000e+02
 4.17500000000000000e+03,-2.49846643627310106e-04,-1.00000000000000000e+02
 4.20000000000000000e+03,-2.47878213231163670e-04,-1.00000000000000000e+02
 4.22500000000000000e+03,-2.45958957464102474e-04,-1.00000000000000000e+02
 4.25000000000000000e+03,-2.44088212616229769e-04,-1.00000000000000000e+02
 4.27500000000000000e+03,-2.42265314977648725e-04,-1.00000000000000000e+02
 4.30000000000000000e+03,-2.40489600838462541e-04,-1.00000000000000000e+02
 4.32500000000000000e+03,-2.38760406488774496e-04,-1.00000000000000000e+02
 4.35000000000000000e+03,-2.37077068218687623e-04,-1.00000000000000000e+02
 4.37500000000000000e+03,-2.35438922318305312e-04,-1.00000000000000000e+02
 4.40000000000000000e+03,-2.33845305077730705e-04,-1.00000000000000000e+02
 4.42500000000000000e+03,-2.32292673920075985e-04,-1.00000000000000000e+02
 4.45000000000000000e+03,-2.30772745417507849e-04,-1.00000000000000000e+02
 4.47500000000000000e+03,-2.29291724066291283e-04,-1.00000000000000000e+02
 4.50000000000000000e+03,-2.27848625569603474e-04,-1.00000000000000000e+02
 4.52500000000000000e+03,-2.26442465630621447e-04,-1.00000000000000000e+02
 4.55000000000000000e+03,-2.25072259952522333e-04,-1.00000000000000000e+02
 4.57500000000000000e+03,-2.23737024238483321e-04,-1.00000000000000000e+02
 4.60000000000000000e+03,-2.22435774191681433e-04,-1.00000000000000000e+02
 4.62500000000000000e+03,-2.21167525515293776e-04,-1.00000000000000000e+02
 4.65000000000000000e+03,-2.19931293912497536e-04,-1.00000000000000000e+02
 4.67500000000000000e+03,-2.18726475345095540e-04,-1.00000000000000000e+02
 4.70000000000000000e+03,-2.17553715726218549e-04,-1.00000000000000000e+02
 4.72500000000000000e+03,-2.16410676761585326e-04,-1.00000000000000000e+02
 4.75000000000000000e+03,-2.15296432476672929e-04,-1.00000000000000000e+02
 4.77500000000000000e+03,-2.14210056896958035e-04,-1.00000000000000000e+02
 4.80000000000000000e+03,-2.13150624047917620e-04,-1.00000000000000000e+02
 4.82500000000000000e+03,-2.12117207955028471e-04,-1.00000000000000000e+02
 4.85000000000000000e+03,-2.11108882643767481e-04,-1.00000000000000000e+02
 4.87500000000000000e+03,-2.10124722139611546e-04,-1.00000000000000000e+02
 4.90000000000000000e+03,-2.09163800468037452e-04,-1.00000000000000000e+02
 4.92500000000000000e+03,-2.08227129610665852e-04,-1.00000000000000000e+02
 4.95000000000000000e+03,-2.07328146568890926e-04,-1.00000000000000000e+02
 4.97500000000000000e+03,-2.06453297593529650e-04,-1.00000000000000000e+02
 5.00000000000000000e+03,-2.05601766648546945e-04,-1.00000000000000000e+02
 5.02500000000000000e+03,-2.04772737697907599e-04,-1.00000000000000000e+02
 5.05000000000000000e+03,-2.03965394705576481e-04,-1.00000000000000000e+02
 5.07500000000000000e+03,-2.03178921635518457e-04,-1.00000000000000000e+02
 5.10000000000000000e+03,-2.02412502451698370e-04,-1.00000000000000000e+02
 5.12500000000000000e+03,-2.01665321118081088e-04,-1.00000000000000000e+02
 5.15000000000000000e+03,-2.00936561598631370e-04,-1.00000000000000000e+02
 5.17500000000000000e+03,-2.00225407857314167e-04,-1.00000000000000000e+02
 5.20000000000000000e+03,-1.99531043858094264e-04,-1.00000000000000000e+02
 5.22500000000000000e+03,-1.98852653564936585e-04,-1.00000000000000000e+02
 5.25000000000000000e+03,-1.98189420941805944e-04,-1.00000000000000000e+02
 5.27500000000000000e+03,-1.97540529952667154e-04,-1.00000000000000000e+02
 5.30000000000000000e+03,-1.96905164561485084e-04,-1.00000000000000000e+02
 5.32500000000000000e+03,-1.96282508732224575e-04,-1.00000000000000000e+02
 5.35000000000000000e+03,-1.95671746428850523e-04,-1.00000000000000000e+02
 5.37500000000000000e+03,-1.95072061615327713e-04,-1.00000000000000000e+02
 5.40000000000000000e+03,-1.94486337566170554e-04,-1.00000000000000000e+02
 5.42500000000000000e+03,-1.93942001015241121e-04,-1.00000000000000000e+02
 5.45000000000000000e+03,-1.93411714172182921e-04,-1.00000000000000000e+02
 5.47500000000000000e+03,-1.92894930408472854e-04,-1.00000000000000000e+02
 5.50000000000000000e+03,-1.92391103095587712e-04,-1.00000000000000000e+02
 5.52500000000000000e+03,-1.91899685605004288e-04,-1.00000000000000000e+02
 5.55000000000000000e+03,-1.91420131308199455e-04,-1.00000000000000000e+02
 5.57500000000000000e+03,-1.90951893576650061e-04,-1.00000000000000000e+02
 5.60000000000000000e+03,-1.90494425781832923e-04,-1.00000000000000000e+02
 5.62500000000000000e+03,-1.90047181295224891e-04,-1.00000000000000000e+02
 5.65000000000000000e+03,-1.89609613488302782e-04,-1.00000000000000000e+02
 5.67500000000000000e+03,-1.89181175732543443e-04,-1.00000000000000000e+02
 5.70000000000000000e+03,-1.88761321399423749e-04,-1.00000000000000000e+02
 5.72500000000000000e+03,-1.88349503860420491e-04,-1.00000000000000000e+02
 5.75000000000000000e+03,-1.87945176487010489e-04,-1.00000000000000000e+02
 5.77500000000000000e+03,-1.87547792650670644e-04,-1.00000000000000000e+02
 5.80000000000000000e+03,-1.87156805722877748e-04,-1.00000000000000000e+02
 5.82500000000000000e+03,-1.86771669075108676e-04,-1.00000000000000000e+02
 5.85000000000000000e+03,-1.86391836078840165e-04,-1.00000000000000000e+02
 5.87500000000000000e+03,-1.86019730772389727e-04,-1.00000000000000000e+02
 5.90000000000000000e+03,-1.85679193279655039e-04,-1.00000000000000000e+02
 5.92500000000000000e+03,-1.85346934750520826e-04,-1.00000000000000000e+02
 5.95000000000000000e+03,-1.85022638019613478e-04,-1.00000000000000000e+02
 5.97500000000000000e+03,-1.84705985921559333e-04,-1.00000000000000000e+02
 6.00000000000000000e+03,-1.84396661290984782e-04,-1.00000000000000000e+02
 6.02500000000000000e+03,-1.84094346962516135e-04,-1.00000000000000000e+02
 6.05000000000000000e+03,-1.83798725770779810e-04,-1.00000000000000000e+02
 6.07500000000000000e+03,-1.83509480550402172e-04,-1.00000000000000000e+02
 6.10000000000000000e+03,-1.83226294136009559e-04,-1.00000000000000000e+02
 6.12500000000000000e+03,-1.82948849362228334e-04,-1.00000000000000000e+02
 6.15000000000000000e+03,-1.82676829063684835e-04,-1.00000000000000000e+02
 6.17500000000000000e+03,-1.82409916075005479e-04,-1.00000000000000000e+02
 6.20000000000000000e+03,-1.82147793230816606e-04,-1.00000000000000000e+02
 6.22500000000000000e+03,-1.81890143365744605e-04,-1.00000000000000000e+02
 6.25000000000000000e+03,-1.81636649314415759e-04,-1.00000000000000000e+02
 6.27500000000000000e+03,-1.81386993911456516e-04,-1.00000000000000000e+02
 6.30000000000000000e+03,-1.81140859991493183e-04,-1.00000000000000000e+02
 6.32500000000000000e+03,-1.80897930389152181e-04,-1.00000000000000000e+02
 6.35000000000000000e+03,-1.80659619147480579e-04,-1.00000000000000000e+02
 6.37500000000000000e+03,-1.80440942861322031e-04,-1.00000000000000000e+02
 6.40000000000000000e+03,-1.80227381528097290e-04,-1.00000000000000000e+02
 6.42500000000000000e+03,-1.80018760330187289e-04,-1.00000000000000000e+02
 6.45000000000000000e+03,-1.79814904449972961e-04,-1.00000000000000000e+02
 6.47500000000000000e+03,-1.79615639069835348e-04,-1.00000000000000000e+02
 6.50000000000000000e+03,-1.79420789372155355e-04,-1.00000000000000000e+02
 6.52500000000000000e+03,-1.79230180539313998e-04,-1.00000000000000000e+02
