"time","current","voltage"
 0.00000000000000000e+00, 2.29609456074477043e-04,-8.00000000000000000e+01
 2.50000000000000000e+01, 2.29617729983395312e-04,-8.00000000000000000e+01
 5.00000000000000000e+01, 2.29625983291906107e-04,-8.00000000000000000e+01
 7.50000000000000000e+01, 2.29634236600416902e-04,-8.00000000000000000e+01
 1.00000000000000000e+02, 2.29642489908927697e-04,-8.00000000000000000e+01
 1.25000000000000000e+02, 2.29650743217438464e-04,-8.00000000000000000e+01
 1.50000000000000000e+02, 2.29658996525949259e-04,-8.00000000000000000e+01
 1.75000000000000000e+02, 2.29667249834460054e-04,-8.00000000000000000e+01
 2.00000000000000000e+02, 2.29675503142970849e-04,-8.00000000000000000e+01
 2.25000000000000000e+02, 2.29683756451481644e-04,-8.00000000000000000e+01
 2.50000000000000000e+02, 2.29692009759992438e-04,-8.00000000000000000e+01
 2.75000000000000000e+02, 2.29700263068503233e-04,-8.00000000000000000e+01
 3.00000000000000000e+02, 2.29708516377013974e-04,-8.00000000000000000e+01
 3.25000000000000000e+02, 2.29715859616456811e-04,-8.00000000000000000e+01
 3.50000000000000000e+02, 2.29721914858201272e-04,-8.00000000000000000e+01
 3.75000000000000000e+02, 2.29727765650366450e-04,-8.00000000000000000e+01
 4.00000000000000000e+02, 2.29733411992952182e-04,-8.00000000000000000e+01
 4.25000000000000000e+02, 2.29738853885958633e-04,-8.00000000000000000e+01
 4.50000000000000000e+02, 2.29744091329385719e-04,-8.00000000000000000e+01
 4.75000000000000000e+02, 2.29749124323233442e-04,-8.00000000000000000e+01
 5.00000000000000000e+02, 2.29753952867501829e-04,-8.00000000000000000e+01
 5.25000000000000000e+02, 2.29758576962190878e-04,-8.00000000000000000e+01
 5.50000000000000000e+02, 2.29762996607300537e-04,-8.00000000000000000e+01
 5.75000000000000000e+02, 2.29767211802830860e-04,-8.00000000000000000e+01
 6.00000000000000000e+02, 2.29771222548781845e-04,-8.00000000000000000e+01
 6.25000000000000000e+02, 2.29775028845153521e-04,-8.00000000000000000e+01
 6.50000000000000000e+02, 2.29778630691945753e-04,-8.00000000000000000e+01
 6.75000000000000000e+02, 2.29782028089158729e-04,-8.00000000000000000e+01
 7.00000000000000000e+02, 2.29785221036792286e-04,-8.00000000000000000e+01
 7.25000000000000000e+02, 2.29788209534846535e-04,-8.00000000000000000e+01
 7.50000000000000000e+02, 2.29790993583321447e-04,-8.00000000000000000e+01
 7.75000000000000000e+02, 2.29793573182216941e-04,-8.00000000000000000e+01
 8.00000000000000000e+02, 2.29795948331533098e-04,-8.00000000000000000e+01
 8.25000000000000000e+02, 2.29799173735804158e-04,-8.00000000000000000e+01
 8.50000000000000000e+02, 2.29802479525516984e-04,-8.00000000000000000e+01
 8.75000000000000000e+02, 2.29805654786769482e-04,-8.00000000000000000e+01
 9.00000000000000000e+02, 2.29808699519561599e-04,-8.00000000000000000e+01
 9.25000000000000000e+02, 2.29811613723893414e-04,-8.00000000000000000e+01
 9.50000000000000000e+02, 2.29814397399764794e-04,-8.00000000000000000e+01
 9.75000000000000000e+02, 2.29817050547175900e-04,-8.00000000000000000e+01
 1.00000000000000000e+03, 2.29819573166126651e-04,-8.00000000000000000e+01
 1.02500000000000000e+03, 2.29821965256617048e-04,-8.00000000000000000e+01
 1.05000000000000000e+03, 2.29824226818647063e-04,-8.00000000000000000e+01
 1.07500000000000000e+03, 2.29826357852216777e-04,-8.00000000000000000e+01
 1.10000000000000000e+03, 2.29828358357326109e-04,-8.00000000000000000e+01
 1.12500000000000000e+03, 2.29830228333975141e-04,-8.00000000000000000e+01
 1.15000000000000000e+03, 2.29831967782163790e-04,-8.00000000000000000e+01
 1.17500000000000000e+03, 2.29833576701892085e-04,-8.00000000000000000e+01
 1.20000000000000000e+03, 2.29835055093160080e-04,-8.00000000000000000e+01
 1.22500000000000000e+03, 2.29836402955967665e-04,-8.00000000000000000e+01
 1.25000000000000000e+03, 2.29837620290314923e-04,-8.00000000000000000e+01
 1.27500000000000000e+03, 2.29838707096201799e-04,-8.00000000000000000e+01
 1.30000000000000000e+03, 2.29839663373628374e-04,-8.00000000000000000e+01
 1.32500000000000000e+03, 2.29840489122594568e-04,-8.00000000000000000e+01
 1.35000000000000000e+03, 2.29841184343100460e-04,-8.00000000000000000e+01
 1.37500000000000000e+03, 2.29841749035145971e-04,-8.00000000000000000e+01
 1.40000000000000000e+03, 2.29842183198731155e-04,-8.00000000000000000e+01
 1.42500000000000000e+03, 2.29842486833855929e-04,-8.00000000000000000e+01
 1.45000000000000000e+03, 2.29842659940520403e-04,-8.00000000000000000e+01
 1.47500000000000000e+03, 2.29842702518724576e-04,-8.00000000000000000e+01
 1.50000000000000000e+03, 2.29842614568468340e-04,-8.00000000000000000e+01
 1.52500000000000000e+03, 2.29842396089751722e-04,-8.00000000000000000e+01
 1.55000000000000000e+03, 2.29842047082574831e-04,-8.00000000000000000e+01
 1.57500000000000000e+03, 2.29841567546937585e-04,-8.00000000000000000e+01
 1.60000000000000000e+03, 2.29840957482839903e-04,-8.00000000000000000e+01
 1.62500000000000000e+03, 2.29840216890281920e-04,-8.00000000000000000e+01
 1.65000000000000000e+03, 2.29839920160302249e-04,-8.00000000000000000e+01
 1.67500000000000000e+03, 2.29841312247080240e-04,-8.00000000000000000e+01
 1.70000000000000000e+03, 2.29842656667035377e-04,-8.00000000000000000e+01
 1.72500000000000000e+03, 2.29843953420167659e-04,-8.00000000000000000e+01
 1.75000000000000000e+03, 2.29845202506477196e-04,-8.00000000000000000e+01
 1.77500000000000000e+03, 2.29846403925963852e-04,-8.00000000000000000e+01
 1.80000000000000000e+03, 2.29847557678627734e-04,-8.00000000000000000e+01
 1.82500000000000000e+03, 2.29848663764468789e-04,-8.00000000000000000e+01
 1.85000000000000000e+03, 2.29849722183487017e-04,-8.00000000000000000e+01
 1.87500000000000000e+03, 2.29850732935682473e-04,-8.00000000000000000e+01
 1.90000000000000000e+03, 2.29851696021055100e-04,-8.00000000000000000e+01
 1.92500000000000000e+03, 2.29852611439604847e-04,-8.00000000000000000e+01
 1.95000000000000000e+03, 2.29853479191331848e-04,-8.00000000000000000e+01
 1.97500000000000000e+03, 2.29854299276236048e-04,-8.00000000000000000e+01
 2.00000000000000000e+03,-6.89565215082951939e-04,-1.00000000000000000e+02
 2.02500000000000000e+03,-6.24263920307629484e-04,-1.00000000000000000e+02
 2.05000000000000000e+03,-5.43557909156818474e-04,-1.00000000000000000e+02
 2.07500000000000000e+03,-4.74865966366592041e-04,-1.00000000000000000e+02
 2.10000000000000000e+03,-4.16409002866764460e-04,-1.00000000000000000e+02
 2.12500000000000000e+03,-3.66659267972127860e-04,-1.00000000000000000e+02
 2.15000000000000000e+03,-3.24322570575163983e-04,-1.00000000000000000e+02
 2.17500000000000000e+03,-2.88291623145520463e-04,-1.00000000000000000e+02
 2.20000000000000000e+03,-2.57629395911932900e-04,-1.00000000000000000e+02
 2.22500000000000000e+03,-2.31524690361395371e-04,-1.00000000000000000e+02
 2.25000000000000000e+03,-2.09294427126465387e-04,-1.00000000000000000e+02
 2.27500000000000000e+03,-1.90378289511280671e-04,-1.00000000000000000e+02
 2.30000000000000000e+03,-1.74293675164791784e-04,-1.00000000000000000e+02
 2.32500000000000000e+03,-1.60612375775196034e-04,-1.00000000000000000e+02
 2.35000000000000000e+03,-1.48970835219755423e-04,-1.00000000000000000e+02
 2.37500000000000000e+03,-1.39062400244581718e-04,-1.00000000000000000e+02
 2.40000000000000000e+03,-1.30629112110398546e-04,-1.00000000000000000e+02
 2.42500000000000000e+03,-1.23446242765266802e-04,-1.00000000000000000e+02
 2.45000000000000000e+03,-1.17323223696805696e-04,-1.00000000000000000e+02
 2.47500000000000000e+03,-1.12112737067368294e-04,-1.00000000000000000e+02
 2.50000000000000000e+03,-1.07660018804203036e-04,-1.00000000000000000e+02
 2.52500000000000000e+03,-1.03886483045511645e-04,-1.00000000000000000e+02
 2.55000000000000000e+03,-1.00659987621129151e-04,-1.00000000000000000e+02
 2.57500000000000000e+03,-9.79299027988957712e-05,-1.00000000000000000e+02
 2.60000000000000000e+03,-9.56065050105724286e-05,-1.00000000000000000e+02
 2.62500000000000000e+03,-9.36356217524637576e-05,-1.00000000000000000e+02
 2.65000000000000000e+03,-9.19794497269302649e-05,-1.00000000000000000e+02
 2.67500000000000000e+03,-9.05867277203447350e-05,-1.00000000000000000e+02
 2.70000000000000000e+03,-8.94035524811784391e-05,-1.00000000000000000e+02
 2.72500000000000000e+03,-8.84157969735445724e-05,-1.00000000000000000e+02
 2.75000000000000000e+03,-8.76863834048981081e-05,-1.00000000000000000e+02
 2.77500000000000000e+03,-8.71031744020617173e-05,-1.00000000000000000e+02
 2.80000000000000000e+03,-8.66221761878886314e-05,-1.00000000000000000e+02
 2.82500000000000000e+03,-8.61993949852321226e-05,-1.00000000000000000e+02
 2.85000000000000000e+03,-8.57908370169454089e-05,-1.00000000000000000e+02
 2.87500000000000000e+03,-8.53607788138329869e-05,-1.00000000000000000e+02
 2.90000000000000000e+03,-8.51906709312075125e-05,-1.00000000000000000e+02
 2.92500000000000000e+03,-8.50535521345968459e-05,-1.00000000000000000e+02
 2.95000000000000000e+03,-8.49261368492873882e-05,-1.00000000000000000e+02
 2.97500000000000000e+03,-8.47851395005655949e-05,-1.00000000000000000e+02
 3.00000000000000000e+03,-8.46072745137178400e-05,-1.00000000000000000e+02
 3.02500000000000000e+03,-8.43692563140305382e-05,-1.00000000000000000e+02
 3.05000000000000000e+03,-8.42380714511220123e-05,-1.00000000000000000e+02
 3.07500000000000000e+03,-8.41524297931708508e-05,-1.00000000000000000e+02
 3.10000000000000000e+03,-8.40624581005147931e-05,-1.00000000000000000e+02
 3.12500000000000000e+03,-8.39605212024131808e-05,-1.00000000000000000e+02
 3.15000000000000000e+03,-8.38389839281253422e-05,-1.00000000000000000e+02
 3.17500000000000000e+03,-8.36902111069106052e-05,-1.00000000000000000e+02
 3.20000000000000000e+03,-8.35591240834290556e-05,-1.00000000000000000e+02
 3.22500000000000000e+03,-8.34673659570851572e-05,-1.00000000000000000e+02
 3.25000000000000000e+03,-8.33776445369101835e-05,-1.00000000000000000e+02
 3.27500000000000000e+03,-8.32890301623079353e-05,-1.00000000000000000e+02
 3.30000000000000000e+03,-8.32005931726821998e-05,-1.00000000000000000e+02
 3.32500000000000000e+03,-8.31114039074368725e-05,-1.00000000000000000e+02
 3.35000000000000000e+03,-8.30254450170670458e-05,-1.00000000000000000e+02
 3.37500000000000000e+03,-8.29547336860302569e-05,-1.00000000000000000e+02
 3.40000000000000000e+03,-8.28898747998268147e-05,-1.00000000000000000e+02
 3.42500000000000000e+03,-8.28311858377597657e-05,-1.00000000000000000e+02
 3.45000000000000000e+03,-8.27789842791320618e-05,-1.00000000000000000e+02
 3.47500000000000000e+03,-8.27335876032467222e-05,-1.00000000000000000e+02
 3.50000000000000000e+03,-8.26946949076069125e-05,-1.00000000000000000e+02
 3.52500000000000000e+03,-8.26440022001420361e-05,-1.00000000000000000e+02
 3.55000000000000000e+03,-8.25976878154905124e-05,-1.00000000000000000e+02
 3.57500000000000000e+03,-8.25557517536523955e-05,-1.00000000000000000e+02
 3.60000000000000000e+03,-8.25181940146276448e-05,-1.00000000000000000e+02
 3.62500000000000000e+03,-8.24850145984162603e-05,-1.00000000000000000e+02
 3.65000000000000000e+03,-8.24562135050182691e-05,-1.00000000000000000e+02
 3.67500000000000000e+03,-8.24317907344336440e-05,-1.00000000000000000e+02
 3.70000000000000000e+03,-8.24117462866624123e-05,-1.00000000000000000e+02
 3.72500000000000000e+03,-8.23960801617045467e-05,-1.00000000000000000e+02
 3.75000000000000000e+03,-8.23847923595600744e-05,-1.00000000000000000e+02
 3.77500000000000000e+03,-8.23778828802289683e-05,-1.00000000000000000e+02
 3.80000000000000000e+03,-8.23753517237112420e-05,-1.00000000000000000e+02
 3.82500000000000000e+03,-8.23771988900069089e-05,-1.00000000000000000e+02
 3.85000000000000000e+03,-8.23834243791159284e-05,-1.00000000000000000e+02
 3.87500000000000000e+03,-8.23940281910383549e-05,-1.00000000000000000e+02
 3.90000000000000000e+03,-8.23890518658291907e-05,-1.00000000000000000e+02
 3.92500000000000000e+03,-8.23814517120645455e-05,-1.00000000000000000e+02
 3.95000000000000000e+03,-8.23752105144188139e-05,-1.00000000000000000e+02
 3.97500000000000000e+03,-8.23703282728919687e-05,-1.00000000000000000e+02
 4.00000000000000000e+03,-8.23668049874840371e-05,-1.00000000000000000e+02
 4.02500000000000000e+03,-8.23646406581950055e-05,-1.00000000000000000e+02
 4.05000000000000000e+03,-8.23638352850249010e-05,-1.00000000000000000e+02
 4.07500000000000000e+03,-8.23643888679736694e-05,-1.00000000000000000e+02
 4.10000000000000000e+03,-8.23663014070413784e-05,-1.00000000000000000e+02
 4.12500000000000000e+03,-8.23695729022279604e-05,-1.00000000000000000e+02
 4.15000000000000000e+03,-8.23742033535334830e-05,-1.00000000000000000e+02
 4.17500000000000000e+03,-8.23801927609578785e-05,-1.00000000000000000e+02
 4.20000000000000000e+03,-8.23875411245012011e-05,-1.00000000000000000e+02
 4.22500000000000000e+03,-8.23962484441634373e-05,-1.00000000000000000e+02
 4.25000000000000000e+03,-8.24063147199445464e-05,-1.00000000000000000e+02
 4.27500000000000000e+03,-8.24117769775653563e-05,-1.00000000000000000e+02
 4.30000000000000000e+03,-8.24138774954505274e-05,-1.00000000000000000e+02
 4.32500000000000000e+03,-8.24161117515412398e-05,-1.00000000000000000e+02
 4.35000000000000000e+03,-8.24184797458375073e-05,-1.00000000000000000e+02
 4.37500000000000000e+03,-8.24209814783393704e-05,-1.00000000000000000e+02
 4.40000000000000000e+03,-8.24236169490467750e-05,-1.00000000000000000e+02
 4.42500000000000000e+03,-8.24263861579597345e-05,-1.00000000000000000e+02
 4.45000000000000000e+03,-8.24292891050782897e-05,-1.00000000000000000e+02
 4.47500000000000000e+03,-8.24323257904023728e-05,-1.00000000000000000e+02
 4.50000000000000000e+03,-8.24354962139320379e-05,-1.00000000000000000e+02
 4.52500000000000000e+03,-8.24388003756672581e-05,-1.00000000000000000e+02
 4.55000000000000000e+03,-8.24422382756080467e-05,-1.00000000000000000e+02
 4.57500000000000000e+03,-8.24458099137544040e-05,-1.00000000000000000e+02
 4.60000000000000000e+03,-8.24495152901063162e-05,-1.00000000000000000e+02
 4.62500000000000000e+03,-8.24533544046637969e-05,-1.00000000000000000e+02
 4.65000000000000000e+03,-8.24558487094327115e-05,-1.00000000000000000e+02
 4.67500000000000000e+03,-8.24562167739267149e-05,-1.00000000000000000e+02
 4.70000000000000000e+03,-8.24565848384207182e-05,-1.00000000000000000e+02
 4.72500000000000000e+03,-8.24569529029147216e-05,-1.00000000000000000e+02
 4.75000000000000000e+03,-8.24573209674087115e-05,-1.00000000000000000e+02
 4.77500000000000000e+03,-8.24576890319027149e-05,-1.00000000000000000e+02
 4.80000000000000000e+03,-8.24580570963967047e-05,-1.00000000000000000e+02
 4.82500000000000000e+03,-8.24584251608907217e-05,-1.00000000000000000e+02
 4.85000000000000000e+03,-8.24587932253847251e-05,-1.00000000000000000e+02
 4.87500000000000000e+03,-8.24591612898787284e-05,-1.00000000000000000e+02
 4.90000000000000000e+03,-8.24595293543727318e-05,-1.00000000000000000e+02
 4.92500000000000000e+03,-8.24598974188667217e-05,-1.00000000000000000e+02
 4.95000000000000000e+03,-8.24602654833607386e-05,-1.00000000000000000e+02
 4.97500000000000000e+03,-8.24606335478547420e-05,-1.00000000000000000e+02
 5.00000000000000000e+03,-8.24610016123487454e-05,-1.00000000000000000e+02
 5.02500000000000000e+03,-8.24613696768427488e-05,-1.00000000000000000e+02
 5.05000000000000000e+03,-8.24617377413367386e-05,-1.00000000000000000e+02
 5.07500000000000000e+03,-8.24621058058307556e-05,-1.00000000000000000e+02
 5.10000000000000000e+03,-8.24624738703247590e-05,-1.00000000000000000e+02
 5.12500000000000000e+03,-8.24628419348187624e-05,-1.00000000000000000e+02
 5.15000000000000000e+03,-8.24632099993127658e-05,-1.00000000000000000e+02
 5.17500000000000000e+03,-8.24635780638067421e-05,-1.00000000000000000e+02
 5.20000000000000000e+03,-8.24639461283007590e-05,-1.00000000000000000e+02
 5.22500000000000000e+03,-8.24643141927947488e-05,-1.00000000000000000e+02
 5.25000000000000000e+03,-8.24646822572887658e-05,-1.00000000000000000e+02
 5.27500000000000000e+03,-8.24650503217827556e-05,-1.00000000000000000e+02
 5.30000000000000000e+03,-8.24654183862767590e-05,-1.00000000000000000e+02
 5.32500000000000000e+03,-8.24657864507707760e-05,-1.00000000000000000e+02
 5.35000000000000000e+03,-8.24661545152647658e-05,-1.00000000000000000e+02
 5.37500000000000000e+03,-8.24665225797587828e-05,-1.00000000000000000e+02
 5.40000000000000000e+03,-8.24668906442527726e-05,-1.00000000000000000e+02
 5.42500000000000000e+03,-8.24672587087467760e-05,-1.00000000000000000e+02
 5.45000000000000000e+03,-8.24676267732407929e-05,-1.00000000000000000e+02
 5.47500000000000000e+03,-8.24679948377347828e-05,-1.00000000000000000e+02
 5.50000000000000000e+03,-8.24683629022287997e-05,-1.00000000000000000e+02
 5.52500000000000000e+03,-8.24687309667227896e-05,-1.00000000000000000e+02
 5.55000000000000000e+03,-8.24690990312167930e-05,-1.00000000000000000e+02
 5.57500000000000000e+03,-8.24694670957108099e-05,-1.00000000000000000e+02
 5.60000000000000000e+03,-8.24698351602047862e-05,-1.00000000000000000e+02
 5.62500000000000000e+03,-8.24702032246988031e-05,-1.00000000000000000e+02
 5.65000000000000000e+03,-8.24705712891927930e-05,-1.00000000000000000e+02
 5.67500000000000000e+03,-8.24709393536868099e-05,-1.00000000000000000e+02
 5.70000000000000000e+03,-8.24713074181807998e-05,-1.00000000000000000e+02
 5.72500000000000000e+03,-8.24716754826748032e-05,-1.00000000000000000e+02
 5.75000000000000000e+03,-8.24720435471688201e-05,-1.00000000000000000e+02
 5.77500000000000000e+03,-8.24724116116628099e-05,-1.00000000000000000e+02
 5.80000000000000000e+03,-8.24727796761568269e-05,-1.00000000000000000e+02
 5.82500000000000000e+03,-8.24731477406508167e-05,-1.00000000000000000e+02
 5.85000000000000000e+03,-8.24735158051448201e-05,-1.00000000000000000e+02
 5.87500000000000000e+03,-8.24738838696388371e-05,-1.00000000000000000e+02
 5.90000000000000000e+03,-8.24742519341328269e-05,-1.00000000000000000e+02
 5.92500000000000000e+03,-8.24746199986268439e-05,-1.00000000000000000e+02
 5.95000000000000000e+03,-8.24749880631208337e-05,-1.00000000000000000e+02
 5.97500000000000000e+03,-8.24753561276148371e-05,-1.00000000000000000e+02
 6.00000000000000000e+03,-8.24757241921088540e-05,-1.00000000000000000e+02
 6.02500000000000000e+03,-8.24760922566028303e-05,-1.00000000000000000e+02
 6.05000000000000000e+03,-8.24764603210968473e-05,-1.00000000000000000e+02
 6.07500000000000000e+03,-8.24768283855908371e-05,-1.00000000000000000e+02
 6.10000000000000000e+03,-8.24771964500848405e-05,-1.00000000000000000e+02
 6.12500000000000000e+03,-8.24775645145788439e-05,-1.00000000000000000e+02
 6.15000000000000000e+03,-8.24779325790728473e-05,-1.00000000000000000e+02
 6.17500000000000000e+03,-8.24781342315342186e-05,-1.00000000000000000e+02
 6.20000000000000000e+03,-8.24781576005866664e-05,-1.00000000000000000e+02
 6.22500000000000000e+03,-8.24781809696391278e-05,-1.00000000000000000e+02
 6.25000000000000000e+03,-8.24782043386915892e-05,-1.00000000000000000e+02
 6.27500000000000000e+03,-8.24782277077440505e-05,-1.00000000000000000e+02
 6.30000000000000000e+03,-8.24782510767965119e-05,-1.00000000000000000e+02
 6.32500000000000000e+03,-8.24782744458489597e-05,-1.00000000000000000e+02
 6.35000000000000000e+03,-8.24782978149014211e-05,-1.00000000000000000e+02
 6.37500000000000000e+03,-8.24783211839538554e-05,-1.00000000000000000e+02
 6.40000000000000000e+03,-8.24783445530063167e-05,-1.00000000000000000e+02
 6.42500000000000000e+03,-8.24783679220587645e-05,-1.00000000000000000e+02
 6.45000000000000000e+03,-8.24783912911112259e-05,-1.00000000000000000e+02
 6.47500000000000000e+03,-8.24784146601636737e-05,-1.00000000000000000e+02
 6.50000000000000000e+03,-8.24784380292161351e-05,-1.00000000000000000e+02
 6.52500000000000000e+03,-8.24784613982685965e-05,-1.00000000000000000e+02
