"time","current","voltage"
 0.00000000000000000e+00, 3.98410585685994036e-04,-8.00000000000000000e+01
 2.50000000000000000e+01, 3.98410665791929918e-04,-8.00000000000000000e+01
 5.00000000000000000e+01, 3.98410744049573881e-04,-8.00000000000000000e+01
 7.50000000000000000e+01, 3.98410822307217736e-04,-8.00000000000000000e+01
 1.00000000000000000e+02, 3.98410900564861699e-04,-8.00000000000000000e+01
 1.25000000000000000e+02, 3.98410978822505662e-04,-8.00000000000000000e+01
 1.50000000000000000e+02, 3.98411057080149463e-04,-8.00000000000000000e+01
 1.75000000000000000e+02, 3.98411135337793426e-04,-8.00000000000000000e+01
 2.00000000000000000e+02, 3.98411213595437227e-04,-8.00000000000000000e+01
 2.25000000000000000e+02, 3.98411291853081190e-04,-8.00000000000000000e+01
 2.50000000000000000e+02, 3.98411370110725099e-04,-8.00000000000000000e+01
 2.75000000000000000e+02, 3.98411448368369008e-04,-8.00000000000000000e+01
 3.00000000000000000e+02, 3.98411526626012917e-04,-8.00000000000000000e+01
 3.25000000000000000e+02, 3.98411604883656880e-04,-8.00000000000000000e+01
 3.50000000000000000e+02, 3.98411683141300789e-04,-8.00000000000000000e+01
 3.75000000000000000e+02, 3.98411761398944643e-04,-8.00000000000000000e+01
 4.00000000000000000e+02, 3.98411839656588607e-04,-8.00000000000000000e+01
 4.25000000000000000e+02, 3.98411917914232461e-04,-8.00000000000000000e+01
 4.50000000000000000e+02, 3.98411996171876425e-04,-8.00000000000000000e+01
 4.75000000000000000e+02, 3.98412074429520225e-04,-8.00000000000000000e+01
 5.00000000000000000e+02, 3.98412152687164188e-04,-8.00000000000000000e+01
 5.25000000000000000e+02, 3.98412230944808151e-04,-8.00000000000000000e+01
 5.50000000000000000e+02, 3.98412309202452006e-04,-8.00000000000000000e+01
 5.75000000000000000e+02, 3.98412387460095969e-04,-8.00000000000000000e+01
 6.00000000000000000e+02, 3.98412449394920805e-04,-8.00000000000000000e+01
 6.25000000000000000e+02, 3.98412452200349113e-04,-8.00000000000000000e+01
 6.50000000000000000e+02, 3.98412455005777311e-04,-8.00000000000000000e+01
 6.75000000000000000e+02, 3.98412457811205619e-04,-8.00000000000000000e+01
 7.00000000000000000e+02, 3.98412460616633872e-04,-8.00000000000000000e+01
 7.25000000000000000e+02, 3.98412463422062179e-04,-8.00000000000000000e+01
 7.50000000000000000e+02, 3.98412466227490432e-04,-8.00000000000000000e+01
 7.75000000000000000e+02, 3.98412469032918630e-04,-8.00000000000000000e+01
 8.00000000000000000e+02, 3.98412471838346938e-04,-8.00000000000000000e+01
 8.25000000000000000e+02, 3.98412474643775245e-04,-8.00000000000000000e+01
 8.50000000000000000e+02, 3.98412477449203498e-04,-8.00000000000000000e+01
 8.75000000000000000e+02, 3.98412480254631697e-04,-8.00000000000000000e+01
 9.00000000000000000e+02, 3.98412483060060004e-04,-8.00000000000000000e+01
 9.25000000000000000e+02, 3.98412485865488257e-04,-8.00000000000000000e+01
 9.50000000000000000e+02, 3.98412488670916564e-04,-8.00000000000000000e+01
 9.75000000000000000e+02, 3.98412491476344817e-04,-8.00000000000000000e+01
 1.00000000000000000e+03, 3.98412494281773070e-04,-8.00000000000000000e+01
 1.02500000000000000e+03, 3.98412497087201323e-04,-8.00000000000000000e+01
 1.05000000000000000e+03, 3.98412499892629576e-04,-8.00000000000000000e+01
 1.07500000000000000e+03, 3.98412502698057883e-04,-8.00000000000000000e+01
 1.10000000000000000e+03, 3.98412505503486245e-04,-8.00000000000000000e+01
 1.12500000000000000e+03, 3.98412508308914389e-04,-8.00000000000000000e+01
 1.15000000000000000e+03, 3.98412511114342642e-04,-8.00000000000000000e+01
 1.17500000000000000e+03, 3.98412513919770949e-04,-8.00000000000000000e+01
 1.20000000000000000e+03, 3.98412516725199311e-04,-8.00000000000000000e+01
 1.22500000000000000e+03, 3.98412519530627564e-04,-8.00000000000000000e+01
 1.25000000000000000e+03, 3.98412522336055708e-04,-8.00000000000000000e+01
 1.27500000000000000e+03, 3.98412525141484070e-04,-8.00000000000000000e+01
 1.30000000000000000e+03, 3.98412527946912323e-04,-8.00000000000000000e+01
 1.32500000000000000e+03, 3.98412530752340630e-04,-8.00000000000000000e+01
 1.35000000000000000e+03, 3.98412533557768883e-04,-8.00000000000000000e+01
 1.37500000000000000e+03, 3.98412536363197136e-04,-8.00000000000000000e+01
 1.40000000000000000e+03, 3.98412539168625389e-04,-8.00000000000000000e+01
 1.42500000000000000e+03, 3.98412541974053642e-04,-8.00000000000000000e+01
 1.45000000000000000e+03, 3.98412544779481949e-04,-8.00000000000000000e+01
 1.47500000000000000e+03, 3.98412547584910256e-04,-8.00000000000000000e+01
 1.50000000000000000e+03, 3.98412550390338455e-04,-8.00000000000000000e+01
 1.52500000000000000e+03, 3.98412553195766708e-04,-8.00000000000000000e+01
 1.55000000000000000e+03, 3.98412556001195015e-04,-8.00000000000000000e+01
 1.57500000000000000e+03, 3.98412558806623268e-04,-8.00000000000000000e+01
 1.60000000000000000e+03, 3.98412561612051575e-04,-8.00000000000000000e+01
 1.62500000000000000e+03, 3.98412564417479774e-04,-8.00000000000000000e+01
 1.65000000000000000e+03, 3.98412567222908081e-04,-8.00000000000000000e+01
 1.67500000000000000e+03, 3.98412570028336334e-04,-8.00000000000000000e+01
 1.70000000000000000e+03, 3.98412572833764587e-04,-8.00000000000000000e+01
 1.72500000000000000e+03, 3.98412575639192894e-04,-8.00000000000000000e+01
 1.75000000000000000e+03, 3.98412578444621093e-04,-8.00000000000000000e+01
 1.77500000000000000e+03, 3.98412581250049400e-04,-8.00000000000000000e+01
 1.80000000000000000e+03, 3.98412584055477653e-04,-8.00000000000000000e+01
 1.82500000000000000e+03, 3.98412586860905961e-04,-8.00000000000000000e+01
 1.85000000000000000e+03, 3.98412589666334214e-04,-8.00000000000000000e+01
 1.87500000000000000e+03, 3.98412592471762412e-04,-8.00000000000000000e+01
 1.90000000000000000e+03, 3.98412595277190720e-04,-8.00000000000000000e+01
 1.92500000000000000e+03, 3.98412598082619027e-04,-8.00000000000000000e+01
 1.95000000000000000e+03, 3.98412600888047280e-04,-8.00000000000000000e+01
 1.97500000000000000e+03, 3.98412603693475533e-04,-8.00000000000000000e+01
 2.00000000000000000e+03,-1.19523781949672854e-03,-1.00000000000000000e+02
 2.02500000000000000e+03,-1.04535861160209311e-03,-1.00000000000000000e+02
 2.05000000000000000e+03,-9.04498945256839706e-04,-1.00000000000000000e+02
 2.07500000000000000e+03,-8.31088314620946492e-04,-1.00000000000000000e+02
 2.10000000000000000e+03,-7.92552334645134381e-04,-1.00000000000000000e+02
 2.12500000000000000e+03,-7.71650863438616856e-04,-1.00000000000000000e+02
 2.15000000000000000e+03,-7.60334373438571504e-04,-1.00000000000000000e+02
 2.17500000000000000e+03,-7.54193210836769275e-04,-1.00000000000000000e+02
 2.20000000000000000e+03,-7.50949425878450882e-04,-1.00000000000000000e+02
 2.22500000000000000e+03,-7.49258620920886472e-04,-1.00000000000000000e+02
 2.25000000000000000e+03,-7.48336505536757908e-04,-1.00000000000000000e+02
 2.27500000000000000e+03,-7.47801191645164451e-04,-1.00000000000000000e+02
 2.30000000000000000e+03,-7.47493304276831494e-04,-1.00000000000000000e+02
 2.32500000000000000e+03,-7.47329473592524274e-04,-1.00000000000000000e+02
 2.35000000000000000e+03,-7.47240068957734632e-04,-1.00000000000000000e+02
 2.37500000000000000e+03,-7.47184055122898346e-04,-1.00000000000000000e+02
 2.40000000000000000e+03,-7.47177722647410355e-04,-1.00000000000000000e+02
 2.42500000000000000e+03,-7.47150707034354594e-04,-1.00000000000000000e+02
 2.45000000000000000e+03,-7.47146865182189311e-04,-1.00000000000000000e+02
 2.47500000000000000e+03,-7.47133481261828326e-04,-1.00000000000000000e+02
 2.50000000000000000e+03,-7.47112295002234418e-04,-1.00000000000000000e+02
 2.52500000000000000e+03,-7.47098451033849885e-04,-1.00000000000000000e+02
 2.55000000000000000e+03,-7.47084115164315548e-04,-1.00000000000000000e+02
 2.57500000000000000e+03,-7.47081103902597814e-04,-1.00000000000000000e+02
 2.60000000000000000e+03,-7.47078117228866783e-04,-1.00000000000000000e+02
 2.62500000000000000e+03,-7.47075155143122672e-04,-1.00000000000000000e+02
 2.65000000000000000e+03,-7.47072217645365264e-04,-1.00000000000000000e+02
 2.67500000000000000e+03,-7.47069304735594559e-04,-1.00000000000000000e+02
 2.70000000000000000e+03,-7.47066416413810774e-04,-1.00000000000000000e+02
 2.72500000000000000e+03,-7.47063552680013801e-04,-1.00000000000000000e+02
 2.75000000000000000e+03,-7.47060713534203531e-04,-1.00000000000000000e+02
 2.77500000000000000e+03,-7.47058546573354490e-04,-1.00000000000000000e+02
 2.80000000000000000e+03,-7.47057044512016441e-04,-1.00000000000000000e+02
 2.82500000000000000e+03,-7.47055737235817040e-04,-1.00000000000000000e+02
 2.85000000000000000e+03,-7.47054624744756071e-04,-1.00000000000000000e+02
 2.87500000000000000e+03,-7.47053707038833640e-04,-1.00000000000000000e+02
 2.90000000000000000e+03,-7.47052984118049858e-04,-1.00000000000000000e+02
 2.92500000000000000e+03,-7.47052455982404723e-04,-1.00000000000000000e+02
 2.95000000000000000e+03,-7.47052122631898128e-04,-1.00000000000000000e+02
 2.97500000000000000e+03,-7.47051984066529964e-04,-1.00000000000000000e+02
 3.00000000000000000e+03,-7.47052040286300448e-04,-1.00000000000000000e+02
 3.02500000000000000e+03,-7.47052291291209472e-04,-1.00000000000000000e+02
 3.05000000000000000e+03,-7.47052737081257143e-04,-1.00000000000000000e+02
 3.07500000000000000e+03,-7.47053377656443137e-04,-1.00000000000000000e+02
 3.10000000000000000e+03,-7.47052838083798868e-04,-1.00000000000000000e+02
 3.12500000000000000e+03,-7.47051266377772691e-04,-1.00000000000000000e+02
 3.15000000000000000e+03,-7.47049771768758773e-04,-1.00000000000000000e+02
 3.17500000000000000e+03,-7.47048354256756898e-04,-1.00000000000000000e+02
 3.20000000000000000e+03,-7.47047013841767391e-04,-1.00000000000000000e+02
 3.22500000000000000e+03,-7.47045750523789927e-04,-1.00000000000000000e+02
 3.25000000000000000e+03,-7.47044564302824505e-04,-1.00000000000000000e+02
 3.27500000000000000e+03,-7.47043455178871452e-04,-1.00000000000000000e+02
 3.30000000000000000e+03,-7.47042423151930658e-04,-1.00000000000000000e+02
 3.32500000000000000e+03,-7.47041468222001907e-04,-1.00000000000000000e+02
 3.35000000000000000e+03,-7.47040590389085307e-04,-1.00000000000000000e+02
 3.37500000000000000e+03,-7.47039789653180966e-04,-1.00000000000000000e+02
 3.40000000000000000e+03,-7.47039066014288668e-04,-1.00000000000000000e+02
 3.42500000000000000e+03,-7.47038419472408738e-04,-1.00000000000000000e+02
 3.45000000000000000e+03,-7.47037850027540960e-04,-1.00000000000000000e+02
 3.47500000000000000e+03,-7.47037357679685224e-04,-1.00000000000000000e+02
 3.50000000000000000e+03,-7.47036942428841856e-04,-1.00000000000000000e+02
 3.52500000000000000e+03,-7.47036604275010639e-04,-1.00000000000000000e+02
 3.55000000000000000e+03,-7.47036343218191465e-04,-1.00000000000000000e+02
 3.57500000000000000e+03,-7.47036159258384551e-04,-1.00000000000000000e+02
 3.60000000000000000e+03,-7.47036052395589787e-04,-1.00000000000000000e+02
 3.62500000000000000e+03,-7.47036022629807175e-04,-1.00000000000000000e+02
 3.65000000000000000e+03,-7.47036069961036931e-04,-1.00000000000000000e+02
 3.67500000000000000e+03,-7.47036194389278730e-04,-1.00000000000000000e+02
 3.70000000000000000e+03,-7.47036395914532788e-04,-1.00000000000000000e+02
 3.72500000000000000e+03,-7.47036674536798780e-04,-1.00000000000000000e+02
 3.75000000000000000e+03,-7.47037030256077249e-04,-1.00000000000000000e+02
 3.77500000000000000e+03,-7.47037463072367761e-04,-1.00000000000000000e+02
 3.80000000000000000e+03,-7.47037972985670424e-04,-1.00000000000000000e+02
 3.82500000000000000e+03,-7.47038559995985454e-04,-1.00000000000000000e+02
 3.85000000000000000e+03,-7.47039224103312528e-04,-1.00000000000000000e+02
 3.87500000000000000e+03,-7.47039965307651861e-04,-1.00000000000000000e+02
 3.90000000000000000e+03,-7.47040783609003237e-04,-1.00000000000000000e+02
 3.92500000000000000e+03,-7.47041679007366980e-04,-1.00000000000000000e+02
 3.95000000000000000e+03,-7.47042651502742659e-04,-1.00000000000000000e+02
 3.97500000000000000e+03,-7.47043701095130705e-04,-1.00000000000000000e+02
 4.00000000000000000e+03,-7.47044827784530685e-04,-1.00000000000000000e+02
 4.02500000000000000e+03,-7.47046031570943142e-04,-1.00000000000000000e+02
 4.05000000000000000e+03,-7.47047312454367750e-04,-1.00000000000000000e+02
 4.07500000000000000e+03,-7.47048670434804401e-04,-1.00000000000000000e+02
 4.10000000000000000e+03,-7.47050105512253419e-04,-1.00000000000000000e+02
 4.12500000000000000e+03,-7.47051617686714481e-04,-1.00000000000000000e+02
 4.15000000000000000e+03,-7.47052533030382313e-04,-1.00000000000000000e+02
 4.17500000000000000e+03,-7.47052565345739951e-04,-1.00000000000000000e+02
 4.20000000000000000e+03,-7.47052597661097806e-04,-1.00000000000000000e+02
 4.22500000000000000e+03,-7.47052629976455553e-04,-1.00000000000000000e+02
 4.25000000000000000e+03,-7.47052662291813299e-04,-1.00000000000000000e+02
 4.27500000000000000e+03,-7.47052694607170937e-04,-1.00000000000000000e+02
 4.30000000000000000e+03,-7.47052726922528792e-04,-1.00000000000000000e+02
 4.32500000000000000e+03,-7.47052759237886539e-04,-1.00000000000000000e+02
 4.35000000000000000e+03,-7.47052791553244177e-04,-1.00000000000000000e+02
 4.37500000000000000e+03,-7.47052823868602140e-04,-1.00000000000000000e+02
 4.40000000000000000e+03,-7.47052856183959778e-04,-1.00000000000000000e+02
 4.42500000000000000e+03,-7.47052888499317633e-04,-1.00000000000000000e+02
 4.45000000000000000e+03,-7.47052920814675271e-04,-1.00000000000000000e+02
 4.47500000000000000e+03,-7.47052953130033018e-04,-1.00000000000000000e+02
 4.50000000000000000e+03,-7.47052985445390764e-04,-1.00000000000000000e+02
 4.52500000000000000e+03,-7.47053017760748619e-04,-1.00000000000000000e+02
 4.55000000000000000e+03,-7.47053050076106366e-04,-1.00000000000000000e+02
 4.57500000000000000e+03,-7.47053082391464004e-04,-1.00000000000000000e+02
 4.60000000000000000e+03,-7.47053114706821859e-04,-1.00000000000000000e+02
 4.62500000000000000e+03,-7.47053147022179605e-04,-1.00000000000000000e+02
 4.65000000000000000e+03,-7.47053179337537352e-04,-1.00000000000000000e+02
 4.67500000000000000e+03,-7.47053211652895098e-04,-1.00000000000000000e+02
 4.70000000000000000e+03,-7.47053243968252845e-04,-1.00000000000000000e+02
 4.72500000000000000e+03,-7.47053276283610483e-04,-1.00000000000000000e+02
 4.75000000000000000e+03,-7.47053308598968446e-04,-1.00000000000000000e+02
 4.77500000000000000e+03,-7.47053340914326193e-04,-1.00000000000000000e+02
 4.80000000000000000e+03,-7.47053373229683831e-04,-1.00000000000000000e+02
 4.82500000000000000e+03,-7.47053405545041686e-04,-1.00000000000000000e+02
 4.85000000000000000e+03,-7.47053437860399324e-04,-1.00000000000000000e+02
 4.87500000000000000e+03,-7.47053470175757179e-04,-1.00000000000000000e+02
 4.90000000000000000e+03,-7.47053502491114817e-04,-1.00000000000000000e+02
 4.92500000000000000e+03,-7.47053534806472672e-04,-1.00000000000000000e+02
 4.95000000000000000e+03,-7.47053567121830418e-04,-1.00000000000000000e+02
 4.97500000000000000e+03,-7.47053599437188056e-04,-1.00000000000000000e+02
 5.00000000000000000e+03,-7.47053631752546020e-04,-1.00000000000000000e+02
 5.02500000000000000e+03,-7.47053664067903658e-04,-1.00000000000000000e+02
 5.05000000000000000e+03,-7.47053696383261404e-04,-1.00000000000000000e+02
 5.07500000000000000e+03,-7.47053728698619151e-04,-1.00000000000000000e+02
 5.10000000000000000e+03,-7.47053761013976897e-04,-1.00000000000000000e+02
 5.12500000000000000e+03,-7.47053793329334644e-04,-1.00000000000000000e+02
 5.15000000000000000e+03,-7.47053825644692499e-04,-1.00000000000000000e+02
 5.17500000000000000e+03,-7.47053857960050245e-04,-1.00000000000000000e+02
 5.20000000000000000e+03,-7.47053890275407883e-04,-1.00000000000000000e+02
 5.22500000000000000e+03,-7.47053922590765738e-04,-1.00000000000000000e+02
 5.25000000000000000e+03,-7.47053954906123484e-04,-1.00000000000000000e+02
 5.27500000000000000e+03,-7.47053987221481231e-04,-1.00000000000000000e+02
 5.30000000000000000e+03,-7.47054019536838869e-04,-1.00000000000000000e+02
 5.32500000000000000e+03,-7.47054051852196724e-04,-1.00000000000000000e+02
 5.35000000000000000e+03,-7.47054084167554470e-04,-1.00000000000000000e+02
 5.37500000000000000e+03,-7.47054116482912109e-04,-1.00000000000000000e+02
 5.40000000000000000e+03,-7.47054148798270072e-04,-1.00000000000000000e+02
 5.42500000000000000e+03,-7.47054181113627710e-04,-1.00000000000000000e+02
 5.45000000000000000e+03,-7.47054213428985565e-04,-1.00000000000000000e+02
 5.47500000000000000e+03,-7.47054245744343203e-04,-1.00000000000000000e+02
 5.50000000000000000e+03,-7.47054278059700949e-04,-1.00000000000000000e+02
 5.52500000000000000e+03,-7.47054310375058696e-04,-1.00000000000000000e+02
 5.55000000000000000e+03,-7.47054342690416551e-04,-1.00000000000000000e+02
 5.57500000000000000e+03,-7.47054375005774297e-04,-1.00000000000000000e+02
 5.60000000000000000e+03,-7.47054407321131935e-04,-1.00000000000000000e+02
 5.62500000000000000e+03,-7.47054439636489790e-04,-1.00000000000000000e+02
 5.65000000000000000e+03,-7.47054471951847537e-04,-1.00000000000000000e+02
 5.67500000000000000e+03,-7.47054504267205283e-04,-1.00000000000000000e+02
 5.70000000000000000e+03,-7.47054536582563030e-04,-1.00000000000000000e+02
 5.72500000000000000e+03,-7.47054568897920776e-04,-1.00000000000000000e+02
 5.75000000000000000e+03,-7.47054601213278523e-04,-1.00000000000000000e+02
 5.77500000000000000e+03,-7.47054633528636378e-04,-1.00000000000000000e+02
 5.80000000000000000e+03,-7.47054665843994124e-04,-1.00000000000000000e+02
 5.82500000000000000e+03,-7.47054698159351762e-04,-1.00000000000000000e+02
 5.85000000000000000e+03,-7.47054730474709617e-04,-1.00000000000000000e+02
 5.87500000000000000e+03,-7.47054762790067255e-04,-1.00000000000000000e+02
 5.90000000000000000e+03,-7.47054795105425110e-04,-1.00000000000000000e+02
 5.92500000000000000e+03,-7.47054827420782748e-04,-1.00000000000000000e+02
 5.95000000000000000e+03,-7.47054859736140603e-04,-1.00000000000000000e+02
 5.97500000000000000e+03,-7.47054892051498350e-04,-1.00000000000000000e+02
 6.00000000000000000e+03,-7.47054924366855988e-04,-1.00000000000000000e+02
 6.02500000000000000e+03,-7.47054956682213951e-04,-1.00000000000000000e+02
 6.05000000000000000e+03,-7.47054983016704312e-04,-1.00000000000000000e+02
 6.07500000000000000e+03,-7.47054983357657923e-04,-1.00000000000000000e+02
 6.10000000000000000e+03,-7.47054983698611425e-04,-1.00000000000000000e+02
 6.12500000000000000e+03,-7.47054984039565036e-04,-1.00000000000000000e+02
 6.15000000000000000e+03,-7.47054984380518539e-04,-1.00000000000000000e+02
 6.17500000000000000e+03,-7.47054984721472041e-04,-1.00000000000000000e+02
 6.20000000000000000e+03,-7.47054985062425543e-04,-1.00000000000000000e+02
 6.22500000000000000e+03,-7.47054985403379154e-04,-1.00000000000000000e+02
 6.25000000000000000e+03,-7.47054985744332765e-04,-1.00000000000000000e+02
 6.27500000000000000e+03,-7.47054986085286267e-04,-1.00000000000000000e+02
 6.30000000000000000e+03,-7.47054986426239878e-04,-1.00000000000000000e+02
 6.32500000000000000e+03,-7.47054986767193381e-04,-1.00000000000000000e+02
 6.35000000000000000e+03,-7.47054987108146883e-04,-1.00000000000000000e+02
 6.37500000000000000e+03,-7.47054987449100386e-04,-1.00000000000000000e+02
 6.40000000000000000e+03,-7.47054987790053996e-04,-1.00000000000000000e+02
 6.42500000000000000e+03,-7.47054988131007607e-04,-1.00000000000000000e+02
 6.45000000000000000e+03,-7.47054988471961110e-04,-1.00000000000000000e+02
 6.47500000000000000e+03,-7.47054988812914720e-04,-1.00000000000000000e+02
 6.50000000000000000e+03,-7.47054989153868223e-04,-1.00000000000000000e+02
 6.52500000000000000e+03,-7.47054989494821725e-04,-1.00000000000000000e+02
